# Conversion and rate: T (C), alpha (-), dalpha/dt (1/s) for each beta.
T_C_1K,alpha_1K,rate_dadt_1/s_1K,T_C_3K,alpha_3K,rate_dadt_1/s_3K,T_C_5K,alpha_5K,rate_dadt_1/s_5K
285,0,1.2045e-06,282.001,0,5.5193e-07,286.001,0,0
285.002,1.01196e-07,1.17099e-06,282.003,2.18603e-08,4.94016e-07,286.003,0,0
285.003,1.99579e-07,1.13847e-06,282.005,4.13334e-08,4.33278e-07,286.005,0,0
285.005,2.95219e-07,1.10661e-06,282.008,5.81322e-08,3.70488e-07,286.006,0,0
285.006,3.88017e-07,1.07174e-06,282.01,7.23141e-08,3.04843e-07,286.008,0,0
285.008,4.78586e-07,1.03943e-06,282.012,8.36437e-08,2.37241e-07,286.01,0,0
285.009,5.65882e-07,1.00978e-06,282.014,9.21554e-08,1.68079e-07,286.012,0,0
285.01,6.50677e-07,9.80711e-07,282.016,9.77132e-08,9.7845e-08,286.013,0,0
285.012,7.32975e-07,9.51161e-07,282.018,1.00312e-07,2.59052e-08,286.015,0,0
285.013,8.12713e-07,9.20615e-07,282.02,1.00853e-07,0,286.017,0,0
285.015,8.89642e-07,8.85223e-07,282.022,1.00853e-07,0,286.019,0,0
285.016,9.64056e-07,8.49369e-07,282.024,1.00853e-07,0,286.02,0,0
285.018,1.03478e-06,8.10929e-07,282.026,1.00853e-07,0,286.022,0,0
285.019,1.10225e-06,7.72824e-07,282.028,1.00853e-07,0,286.024,0,0
285.02,1.16654e-06,7.36311e-07,282.031,1.00853e-07,0,286.026,0,0
285.022,1.22769e-06,6.99219e-07,282.033,1.00853e-07,0,286.028,0,0
285.023,1.28559e-06,6.59777e-07,282.035,1.00853e-07,0,286.029,0,0
285.025,1.34059e-06,6.22411e-07,282.037,1.00853e-07,0,286.031,0,0
285.026,1.39212e-06,5.87172e-07,282.039,1.00853e-07,0,286.033,0,0
285.027,1.44067e-06,5.52405e-07,282.041,1.00853e-07,0,286.035,0,0
285.029,1.48626e-06,5.17772e-07,282.043,1.00853e-07,0,286.036,0,0
285.03,1.52888e-06,4.82799e-07,282.045,1.00853e-07,0,286.038,0,0
285.032,1.56858e-06,4.4914e-07,282.047,1.00853e-07,0,286.04,0,0
285.033,1.60561e-06,4.2014e-07,282.049,1.00853e-07,0,286.042,0,0
285.035,1.64028e-06,3.93502e-07,282.052,1.00853e-07,0,286.043,0,0
285.036,1.67265e-06,3.66357e-07,282.054,1.00853e-07,0,286.045,0,0
285.037,1.70306e-06,3.42568e-07,282.056,1.00853e-07,0,286.047,0,0
285.039,1.73133e-06,3.21093e-07,282.058,1.00853e-07,0,286.049,0,0
285.04,1.75778e-06,2.99762e-07,282.06,1.00853e-07,0,286.05,0,0
285.042,1.78252e-06,2.80963e-07,282.062,1.00853e-07,0,286.052,0,0
285.043,1.8057e-06,2.6313e-07,282.064,1.00853e-07,0,286.054,0,0
285.045,1.82734e-06,2.44999e-07,282.066,1.00853e-07,0,286.056,0,0
285.046,1.84754e-06,2.29081e-07,282.068,1.00853e-07,0,286.057,0,0
285.047,1.8665e-06,2.13029e-07,282.07,1.00853e-07,0,286.059,0,0
285.049,1.88401e-06,1.97985e-07,282.072,1.00853e-07,0,286.061,0,0
285.05,1.90028e-06,1.83825e-07,282.075,1.00853e-07,0,286.063,0,0
285.052,1.91523e-06,1.67117e-07,282.077,1.00853e-07,0,286.064,0,0
285.053,1.92876e-06,1.50603e-07,282.079,1.00853e-07,0,286.066,0,0
285.054,1.94094e-06,1.3529e-07,282.081,1.00853e-07,0,286.068,0,0
285.056,1.95187e-06,1.21171e-07,282.083,1.00853e-07,0,286.07,0,0
285.057,1.96172e-06,1.08401e-07,282.085,1.00853e-07,0,286.072,0,0
285.059,1.97035e-06,9.43103e-08,282.087,1.00853e-07,0,286.073,0,0
285.06,1.97768e-06,7.76687e-08,282.089,1.00853e-07,0,286.075,0,0
285.062,1.98347e-06,5.83297e-08,282.091,1.00853e-07,0,286.077,0,0
285.063,1.98759e-06,3.84579e-08,282.093,1.00853e-07,0,286.079,0,0
285.064,1.99002e-06,1.84822e-08,282.096,1.00853e-07,0,286.08,0,0
285.066,1.99081e-06,0,282.098,1.00853e-07,0,286.082,0,0
285.067,1.99081e-06,0,282.1,1.00853e-07,0,286.084,0,0
285.069,1.99081e-06,0,282.102,1.00853e-07,0,286.086,0,0
285.07,1.99081e-06,0,282.104,1.00853e-07,0,286.087,0,0
285.072,1.99081e-06,0,282.106,1.00853e-07,0,286.089,0,0
285.073,1.99081e-06,0,282.108,1.00853e-07,0,286.091,0,0
285.074,1.99081e-06,0,282.11,1.00853e-07,0,286.093,0,0
285.076,1.99081e-06,0,282.112,1.00853e-07,0,286.094,0,0
285.077,1.99081e-06,0,282.114,1.00853e-07,0,286.096,0,0
285.079,1.99081e-06,0,282.116,1.00853e-07,0,286.098,0,0
285.08,1.99081e-06,0,282.119,1.00853e-07,0,286.1,0,0
285.081,1.99081e-06,0,282.121,1.00853e-07,0,286.101,0,0
285.083,1.99081e-06,0,282.123,1.00853e-07,0,286.103,0,0
285.084,1.99081e-06,0,282.125,1.00853e-07,0,286.105,0,0
285.086,1.99081e-06,0,282.127,1.00853e-07,0,286.107,0,0
285.087,1.99081e-06,0,282.129,1.00853e-07,0,286.108,0,0
285.089,1.99081e-06,0,282.131,1.00853e-07,0,286.11,0,0
285.09,1.99081e-06,0,282.133,1.00853e-07,0,286.112,0,0
285.091,1.99081e-06,0,282.135,1.00853e-07,0,286.114,0,0
285.093,1.99081e-06,0,282.137,1.00853e-07,0,286.116,0,0
285.094,1.99081e-06,0,282.14,1.00853e-07,0,286.117,0,0
285.096,1.99081e-06,0,282.142,1.00853e-07,0,286.119,0,0
285.097,1.99081e-06,0,282.144,1.00853e-07,0,286.121,0,0
285.099,1.99081e-06,0,282.146,1.00853e-07,0,286.123,0,0
285.1,1.99081e-06,0,282.148,1.00853e-07,0,286.124,0,0
285.101,1.99081e-06,0,282.15,1.00853e-07,0,286.126,0,0
285.103,1.99081e-06,0,282.152,1.00853e-07,0,286.128,0,0
285.104,1.99081e-06,0,282.154,1.00853e-07,0,286.13,0,0
285.106,1.99081e-06,0,282.156,1.00853e-07,0,286.131,0,0
285.107,1.99081e-06,0,282.158,1.00853e-07,0,286.133,0,0
285.108,1.99081e-06,0,282.16,1.00853e-07,0,286.135,0,0
285.11,1.99081e-06,0,282.163,1.00853e-07,0,286.137,0,0
285.111,1.99081e-06,0,282.165,1.00853e-07,0,286.138,0,0
285.113,1.99081e-06,0,282.167,1.00853e-07,0,286.14,0,0
285.114,1.99081e-06,0,282.169,1.00853e-07,0,286.142,0,0
285.116,1.99081e-06,0,282.171,1.00853e-07,0,286.144,0,0
285.117,1.99081e-06,0,282.173,1.00853e-07,0,286.145,0,0
285.118,1.99081e-06,0,282.175,1.00853e-07,0,286.147,0,0
285.12,1.99081e-06,0,282.177,1.00853e-07,0,286.149,0,0
285.121,1.99081e-06,0,282.179,1.00853e-07,0,286.151,0,0
285.123,1.99081e-06,0,282.181,1.00853e-07,0,286.153,0,0
285.124,1.99081e-06,0,282.184,1.00853e-07,0,286.154,0,0
285.126,1.99081e-06,0,282.186,1.00853e-07,0,286.156,0,0
285.127,1.99081e-06,0,282.188,1.00853e-07,0,286.158,0,0
285.128,1.99081e-06,0,282.19,1.00853e-07,0,286.16,0,0
285.13,1.99081e-06,0,282.192,1.00853e-07,0,286.161,0,0
285.131,1.99081e-06,0,282.194,1.00853e-07,0,286.163,0,0
285.133,1.99081e-06,0,282.196,1.00853e-07,0,286.165,0,0
285.134,1.99081e-06,0,282.198,1.00853e-07,0,286.167,0,0
285.135,1.99081e-06,0,282.2,1.00853e-07,0,286.168,0,0
285.137,1.99081e-06,0,282.202,1.00853e-07,0,286.17,0,0
285.138,1.99081e-06,0,282.204,1.00853e-07,0,286.172,0,0
285.14,1.99081e-06,0,282.207,1.00853e-07,0,286.174,0,0
285.141,1.99081e-06,0,282.209,1.00853e-07,0,286.175,0,0
285.143,1.99081e-06,0,282.211,1.00853e-07,0,286.177,0,0
285.144,1.99081e-06,0,282.213,1.00853e-07,0,286.179,0,0
285.145,1.99081e-06,0,282.215,1.00853e-07,0,286.181,0,0
285.147,1.99081e-06,0,282.217,1.00853e-07,0,286.182,0,0
285.148,1.99081e-06,0,282.219,1.00853e-07,0,286.184,0,0
285.15,1.99081e-06,0,282.221,1.00853e-07,0,286.186,0,0
285.151,1.99081e-06,0,282.223,1.00853e-07,0,286.188,0,0
285.153,1.99081e-06,0,282.225,1.00853e-07,0,286.189,0,0
285.154,1.99081e-06,0,282.228,1.00853e-07,0,286.191,0,0
285.155,1.99081e-06,0,282.23,1.00853e-07,0,286.193,0,0
285.157,1.99081e-06,0,282.232,1.00853e-07,0,286.195,0,0
285.158,1.99081e-06,0,282.234,1.00853e-07,0,286.197,0,0
285.16,1.99081e-06,0,282.236,1.00853e-07,0,286.198,0,0
285.161,1.99081e-06,0,282.238,1.00853e-07,0,286.2,0,0
285.162,1.99081e-06,0,282.24,1.00853e-07,0,286.202,0,0
285.164,1.99081e-06,0,282.242,1.00853e-07,0,286.204,0,0
285.165,1.99081e-06,0,282.244,1.00853e-07,0,286.205,0,0
285.167,1.99081e-06,0,282.246,1.00853e-07,0,286.207,0,0
285.168,1.99081e-06,0,282.248,1.00853e-07,0,286.209,0,0
285.17,1.99081e-06,0,282.251,1.00853e-07,0,286.211,0,0
285.171,1.99081e-06,0,282.253,1.00853e-07,0,286.212,0,0
285.172,1.99081e-06,0,282.255,1.00853e-07,0,286.214,0,0
285.174,1.99081e-06,0,282.257,1.00853e-07,0,286.216,0,0
285.175,1.99081e-06,0,282.259,1.00853e-07,0,286.218,0,0
285.177,1.99081e-06,0,282.261,1.00853e-07,0,286.219,0,0
285.178,1.99081e-06,0,282.263,1.00853e-07,0,286.221,0,0
285.18,1.99081e-06,0,282.265,1.00853e-07,0,286.223,0,0
285.181,1.99081e-06,0,282.267,1.00853e-07,0,286.225,0,0
285.182,1.99081e-06,0,282.269,1.00853e-07,0,286.226,0,0
285.184,1.99081e-06,0,282.271,1.00853e-07,0,286.228,0,0
285.185,1.99081e-06,0,282.274,1.00853e-07,0,286.23,0,0
285.187,1.99081e-06,0,282.276,1.00853e-07,0,286.232,0,0
285.188,1.99081e-06,0,282.278,1.00853e-07,0,286.233,0,0
285.189,1.99081e-06,0,282.28,1.00853e-07,0,286.235,0,0
285.191,1.99081e-06,0,282.282,1.00853e-07,0,286.237,0,0
285.192,1.99081e-06,0,282.284,1.00853e-07,0,286.239,0,0
285.194,1.99081e-06,0,282.286,1.00853e-07,0,286.241,0,0
285.195,1.99081e-06,0,282.288,1.00853e-07,0,286.242,0,0
285.197,1.99081e-06,0,282.29,1.00853e-07,0,286.244,0,0
285.198,1.99081e-06,0,282.292,1.00853e-07,0,286.246,0,0
285.199,1.99081e-06,0,282.295,1.00853e-07,0,286.248,0,0
285.201,1.99081e-06,0,282.297,1.00853e-07,0,286.249,0,0
285.202,1.99081e-06,0,282.299,1.00853e-07,0,286.251,0,0
285.204,1.99081e-06,0,282.301,1.00853e-07,0,286.253,0,0
285.205,1.99081e-06,0,282.303,1.00853e-07,0,286.255,0,0
285.206,1.99081e-06,0,282.305,1.00853e-07,0,286.256,0,0
285.208,1.99081e-06,0,282.307,1.00853e-07,0,286.258,0,0
285.209,1.99081e-06,0,282.309,1.00853e-07,0,286.26,0,0
285.211,1.99081e-06,0,282.311,1.00853e-07,0,286.262,0,0
285.212,1.99081e-06,0,282.313,1.00853e-07,0,286.263,0,0
285.214,1.99081e-06,0,282.315,1.00853e-07,0,286.265,0,0
285.215,1.99081e-06,0,282.318,1.00853e-07,0,286.267,0,0
285.216,1.99081e-06,0,282.32,1.00853e-07,0,286.269,0,0
285.218,1.99081e-06,0,282.322,1.00853e-07,0,286.27,0,0
285.219,1.99081e-06,0,282.324,1.00853e-07,0,286.272,0,0
285.221,1.99081e-06,0,282.326,1.00853e-07,0,286.274,0,0
285.222,1.99081e-06,0,282.328,1.00853e-07,0,286.276,0,0
285.224,1.99081e-06,0,282.33,1.00853e-07,0,286.278,0,0
285.225,1.99081e-06,0,282.332,1.00853e-07,0,286.279,0,0
285.226,1.99081e-06,0,282.334,1.00853e-07,0,286.281,0,0
285.228,1.99081e-06,0,282.336,1.00853e-07,0,286.283,0,0
285.229,1.99081e-06,0,282.338,1.00853e-07,0,286.285,0,0
285.231,1.99081e-06,0,282.341,1.00853e-07,0,286.286,0,0
285.232,1.99081e-06,0,282.343,1.00853e-07,0,286.288,0,0
285.233,1.99081e-06,0,282.345,1.00853e-07,0,286.29,0,0
285.235,1.99081e-06,0,282.347,1.00853e-07,0,286.292,0,0
285.236,1.99146e-06,1.49756e-08,282.349,1.00853e-07,0,286.293,0,0
285.238,1.99463e-06,5.95447e-08,282.351,1.00853e-07,0,286.295,0,0
285.239,2.00155e-06,1.02792e-07,282.353,1.00853e-07,0,286.297,0,0
285.241,2.01219e-06,1.46965e-07,282.355,1.00853e-07,0,286.299,0,0
285.242,2.02667e-06,1.93018e-07,282.357,1.00853e-07,0,286.3,0,0
285.243,2.04508e-06,2.39152e-07,282.359,1.00853e-07,0,286.302,0,0
285.245,2.06751e-06,2.87435e-07,282.361,1.00853e-07,0,286.304,0,0
285.246,2.09405e-06,3.35494e-07,282.364,1.00853e-07,0,286.306,0,0
285.248,2.12458e-06,3.81137e-07,282.366,1.00853e-07,0,286.307,0,0
285.249,2.15896e-06,4.26038e-07,282.368,1.00853e-07,0,286.309,0,0
285.251,2.19714e-06,4.70224e-07,282.37,1.00853e-07,0,286.311,0,0
285.252,2.23911e-06,5.14971e-07,282.372,1.00853e-07,0,286.313,0,0
285.253,2.2849e-06,5.59775e-07,282.374,1.00853e-07,0,286.314,0,0
285.255,2.3345e-06,6.04573e-07,282.376,1.00853e-07,0,286.316,0,0
285.256,2.38829e-06,6.49278e-07,282.378,1.00853e-07,0,286.318,0,0
285.258,2.44551e-06,6.9387e-07,282.38,1.00853e-07,0,286.32,0,0
285.259,2.50652e-06,7.38265e-07,282.382,1.00853e-07,0,286.322,0,0
285.26,2.5713e-06,7.82398e-07,282.385,1.00853e-07,0,286.323,0,0
285.262,2.6398e-06,8.25673e-07,282.387,1.00853e-07,0,286.325,0,0
285.263,2.71189e-06,8.66473e-07,282.389,1.00853e-07,0,286.327,0,0
285.265,2.78737e-06,9.05448e-07,282.391,1.00853e-07,0,286.329,0,0
285.266,2.86607e-06,9.41949e-07,282.393,1.00853e-07,0,286.33,0,0
285.268,2.94777e-06,9.75858e-07,282.395,1.00853e-07,0,286.332,0,0
285.269,3.03282e-06,1.00668e-06,282.397,1.00853e-07,0,286.334,0,0
285.27,3.11989e-06,1.03732e-06,282.399,1.00853e-07,0,286.336,0,0
285.272,3.20967e-06,1.07004e-06,282.401,1.00853e-07,0,286.337,0,0
285.273,3.3022e-06,1.10204e-06,282.403,1.00853e-07,0,286.339,0,0
285.275,3.39744e-06,1.13379e-06,282.405,1.00853e-07,0,286.341,0,0
285.276,3.49538e-06,1.16521e-06,282.408,1.00853e-07,0,286.343,0,0
285.278,3.59605e-06,1.19782e-06,282.41,1.00853e-07,0,286.344,0,0
285.279,3.6996e-06,1.23304e-06,282.412,1.00853e-07,0,286.346,0,0
285.28,3.80609e-06,1.26681e-06,282.414,1.00853e-07,0,286.348,0,0
285.282,3.91533e-06,1.29751e-06,282.416,1.00853e-07,0,286.35,0,0
285.283,4.02797e-06,1.3281e-06,282.418,1.00853e-07,0,286.351,0,0
285.285,4.14241e-06,1.35817e-06,282.42,1.00853e-07,0,286.353,0,0
285.286,4.25938e-06,1.38762e-06,282.422,1.00853e-07,0,286.355,0,0
285.287,4.3789e-06,1.41798e-06,282.424,1.00853e-07,0,286.357,0,0
285.289,4.5011e-06,1.45059e-06,282.426,1.00853e-07,0,286.358,0,0
285.29,4.62616e-06,1.4851e-06,282.428,1.00853e-07,0,286.36,0,0
285.292,4.75416e-06,1.51958e-06,282.431,1.00853e-07,0,286.362,0,0
285.293,4.88499e-06,1.55148e-06,282.433,1.00853e-07,0,286.364,0,0
285.295,5.01844e-06,1.58131e-06,282.435,1.00853e-07,0,286.365,0,0
285.296,5.15438e-06,1.60977e-06,282.437,1.00853e-07,0,286.367,0,0
285.297,5.29259e-06,1.63463e-06,282.439,1.00853e-07,0,286.369,0,0
285.299,5.4327e-06,1.65436e-06,282.441,1.00853e-07,0,286.371,0,0
285.3,5.57426e-06,1.66864e-06,282.443,1.00853e-07,0,286.373,0,0
285.302,5.71689e-06,1.67928e-06,282.445,1.00853e-07,0,286.374,0,0
285.303,5.86029e-06,1.68691e-06,282.447,1.00853e-07,0,286.376,0,0
285.305,6.00428e-06,1.69318e-06,282.449,1.00853e-07,0,286.378,0,0
285.306,6.14883e-06,1.70016e-06,282.452,1.00853e-07,0,286.38,0,0
285.307,6.29394e-06,1.70599e-06,282.454,1.00853e-07,0,286.381,0,0
285.309,6.43946e-06,1.71006e-06,282.456,1.00853e-07,0,286.383,0,0
285.31,6.5854e-06,1.71577e-06,282.458,1.00853e-07,0,286.385,0,0
285.312,6.73193e-06,1.72391e-06,282.46,1.00853e-07,0,286.387,0,0
285.313,6.88012e-06,1.7303e-06,282.462,1.00853e-07,0,286.388,0,0
285.314,7.0277e-06,1.7341e-06,282.464,1.00853e-07,0,286.39,0,0
285.316,7.1755e-06,1.7354e-06,282.466,1.00853e-07,0,286.392,0,0
285.317,7.32326e-06,1.73315e-06,282.468,1.00853e-07,0,286.394,0,0
285.319,7.47073e-06,1.72859e-06,282.47,1.00853e-07,0,286.395,0,0
285.32,7.61786e-06,1.72524e-06,282.472,1.00853e-07,0,286.397,0,0
285.322,7.76489e-06,1.72615e-06,282.475,1.00853e-07,0,286.399,0,0
285.323,7.91311e-06,1.72889e-06,282.477,1.00853e-07,0,286.401,0,0
285.324,8.06056e-06,1.7322e-06,282.479,1.00853e-07,0,286.402,0,0
285.326,8.20836e-06,1.7374e-06,282.481,1.00853e-07,0,286.404,0,0
285.327,8.35682e-06,1.7474e-06,282.483,1.00853e-07,0,286.406,0,0
285.329,8.50633e-06,1.76242e-06,282.485,1.00853e-07,0,286.408,0,0
285.33,8.65726e-06,1.78042e-06,282.487,1.00853e-07,0,286.409,0,0
285.332,8.80975e-06,1.79916e-06,282.489,1.00853e-07,0,286.411,0,0
285.333,8.96391e-06,1.8197e-06,282.491,1.00853e-07,0,286.413,0,0
285.334,9.11985e-06,1.84076e-06,282.493,1.00853e-07,0,286.415,0,0
285.336,9.27879e-06,1.8642e-06,282.495,1.00853e-07,0,286.417,0,0
285.337,9.43871e-06,1.88983e-06,282.498,1.00853e-07,0,286.418,0,0
285.339,9.60095e-06,1.91852e-06,282.5,1.00853e-07,0,286.42,0,0
285.34,9.76568e-06,1.94839e-06,282.502,1.00853e-07,0,286.422,0,0
285.341,9.93295e-06,1.97825e-06,282.504,1.00853e-07,0,286.424,0,0
285.343,1.01028e-05,2.00806e-06,282.506,1.00853e-07,0,286.425,0,0
285.344,1.0275e-05,2.03564e-06,282.508,1.00853e-07,0,286.427,0,0
285.346,1.04496e-05,2.06326e-06,282.51,1.00853e-07,0,286.429,0,0
285.347,1.06266e-05,2.09039e-06,282.512,1.00853e-07,0,286.431,0,0
285.349,1.08059e-05,2.11834e-06,282.514,1.00853e-07,0,286.432,0,0
285.35,1.0989e-05,2.14948e-06,282.516,1.00853e-07,0,286.434,0,0
285.351,1.11735e-05,2.18231e-06,282.519,1.00853e-07,0,286.436,0,0
285.353,1.1361e-05,2.21807e-06,282.521,1.00853e-07,0,286.438,0,0
285.354,1.15516e-05,2.25734e-06,282.523,1.00853e-07,0,286.439,0,0
285.356,1.17457e-05,2.29822e-06,282.525,1.00853e-07,0,286.441,0,0
285.357,1.19432e-05,2.33761e-06,282.527,1.00853e-07,0,286.443,0,0
285.359,1.21439e-05,2.37529e-06,282.529,1.00853e-07,0,286.445,0,0
285.36,1.23479e-05,2.41281e-06,282.531,1.00853e-07,0,286.446,0,0
285.361,1.25549e-05,2.44629e-06,282.533,1.00853e-07,0,286.448,0,0
285.363,1.27661e-05,2.47725e-06,282.535,1.00853e-07,0,286.45,0,0
285.364,1.29784e-05,2.50667e-06,282.537,1.00853e-07,0,286.452,0,0
285.366,1.31932e-05,2.53453e-06,282.539,1.00853e-07,0,286.454,0,0
285.367,1.34103e-05,2.56087e-06,282.542,1.00853e-07,0,286.455,0,0
285.368,1.36295e-05,2.58628e-06,282.544,1.00853e-07,0,286.457,0,0
285.37,1.38509e-05,2.60937e-06,282.546,1.00853e-07,0,286.459,0,0
285.371,1.4074e-05,2.62869e-06,282.548,1.00853e-07,0,286.461,0,0
285.373,1.42987e-05,2.64533e-06,282.55,1.00853e-07,0,286.462,0,0
285.374,1.45248e-05,2.66266e-06,282.552,1.00853e-07,0,286.464,0,0
285.376,1.47539e-05,2.67847e-06,282.554,1.00853e-07,0,286.466,0,0
285.377,1.49828e-05,2.69341e-06,282.556,1.00853e-07,0,286.468,0,0
285.378,1.52129e-05,2.70854e-06,282.558,1.00853e-07,0,286.469,0,0
285.38,1.54442e-05,2.72115e-06,282.56,1.00853e-07,0,286.471,0,0
285.381,1.56765e-05,2.73246e-06,282.562,1.00853e-07,0,286.473,0,0
285.383,1.59097e-05,2.742e-06,282.565,1.00853e-07,0,286.475,0,0
285.384,1.61437e-05,2.74989e-06,282.567,1.00853e-07,0,286.476,0,0
285.386,1.63783e-05,2.75619e-06,282.569,1.00853e-07,0,286.478,0,0
285.387,1.66133e-05,2.76153e-06,282.571,1.00853e-07,0,286.48,0,0
285.388,1.68488e-05,2.76544e-06,282.573,1.00853e-07,0,286.482,0,0
285.39,1.70862e-05,2.77009e-06,282.575,1.00853e-07,0,286.483,0,0
285.391,1.73226e-05,2.77773e-06,282.577,1.00853e-07,0,286.485,0,0
285.393,1.75596e-05,2.78726e-06,282.579,1.00853e-07,0,286.487,0,0
285.394,1.77975e-05,2.79753e-06,282.581,1.00853e-07,0,286.489,0,0
285.395,1.80365e-05,2.8125e-06,282.583,1.00853e-07,0,286.49,0,0
285.397,1.8277e-05,2.83132e-06,282.585,1.00853e-07,0,286.492,0,0
285.398,1.85191e-05,2.85147e-06,282.588,1.00853e-07,0,286.494,0,0
285.4,1.8763e-05,2.87535e-06,282.59,1.00853e-07,0,286.496,0,0
285.401,1.90091e-05,2.90128e-06,282.592,1.00853e-07,0,286.498,0,0
285.403,1.92591e-05,2.92647e-06,282.594,1.00853e-07,0,286.499,0,0
285.404,1.95096e-05,2.95324e-06,282.596,1.00853e-07,0,286.501,0,0
285.405,1.97624e-05,2.98041e-06,282.598,1.00853e-07,0,286.503,0,0
285.407,2.00174e-05,3.00722e-06,282.6,1.00853e-07,0,286.505,0,0
285.408,2.02748e-05,3.0352e-06,282.602,1.00853e-07,0,286.506,0,0
285.41,2.05364e-05,3.06155e-06,282.604,1.00853e-07,0,286.508,0,0
285.411,2.07985e-05,3.0914e-06,282.606,1.00853e-07,0,286.51,0,0
285.413,2.10631e-05,3.12033e-06,282.609,1.00853e-07,0,286.512,0,0
285.414,2.13301e-05,3.14615e-06,282.611,1.00853e-07,0,286.513,0,0
285.415,2.15993e-05,3.17379e-06,282.613,1.00853e-07,0,286.515,0,0
285.417,2.18728e-05,3.20185e-06,282.615,1.00853e-07,0,286.517,0,0
285.418,2.21468e-05,3.23016e-06,282.617,1.00853e-07,0,286.519,0,0
285.42,2.24234e-05,3.26203e-06,282.619,1.00853e-07,0,286.52,0,0
285.421,2.27027e-05,3.29414e-06,282.621,1.00853e-07,0,286.522,0,0
285.422,2.29849e-05,3.33033e-06,282.623,1.00853e-07,0,286.524,0,0
285.424,2.32704e-05,3.371e-06,282.625,1.00853e-07,0,286.526,0,0
285.425,2.35614e-05,3.41317e-06,282.627,1.00853e-07,0,286.527,0,0
285.427,2.3854e-05,3.45512e-06,282.629,1.00853e-07,0,286.529,0,0
285.428,2.41502e-05,3.49734e-06,282.632,1.00853e-07,0,286.531,0,0
285.43,2.44499e-05,3.53975e-06,282.634,1.00853e-07,0,286.533,0,0
285.431,2.47533e-05,3.5807e-06,282.636,1.00853e-07,0,286.535,0,0
285.432,2.50601e-05,3.6213e-06,282.638,1.00853e-07,0,286.536,0,0
285.434,2.53703e-05,3.66159e-06,282.64,1.00853e-07,0,286.538,0,0
285.435,2.56841e-05,3.70281e-06,282.642,1.00853e-07,0,286.54,0,0
285.437,2.60014e-05,3.74678e-06,282.644,1.00853e-07,0,286.542,0,0
285.438,2.63225e-05,3.79125e-06,282.646,1.00853e-07,0,286.543,0,0
285.44,2.66498e-05,3.83785e-06,282.648,1.00853e-07,0,286.545,0,0
285.441,2.69789e-05,3.88787e-06,282.65,1.00853e-07,0,286.547,0,0
285.442,2.73124e-05,3.93912e-06,282.652,1.00853e-07,0,286.549,0,0
285.444,2.76502e-05,3.99102e-06,282.655,1.00853e-07,0,286.55,0,0
285.445,2.79924e-05,4.04296e-06,282.657,1.00853e-07,0,286.552,0,0
285.447,2.8339e-05,4.09333e-06,282.659,1.00853e-07,0,286.554,0,0
285.448,2.86899e-05,4.14225e-06,282.661,1.00853e-07,0,286.556,0,0
285.449,2.90448e-05,4.18862e-06,282.663,1.00853e-07,0,286.557,0,0
285.451,2.94034e-05,4.23069e-06,282.665,1.00853e-07,0,286.559,0,0
285.452,2.97656e-05,4.27121e-06,282.667,1.00853e-07,0,286.561,0,0
285.454,3.01339e-05,4.31369e-06,282.669,1.00853e-07,0,286.563,0,0
