# DSC deconvolution: T (C), smoothed signal, baseline, components (mW/mg).
T_C_1K,DSC_smoothed_1K,baseline_1K,peak_minus_baseline_1K,FS_fit_1K,T_C_3K,DSC_smoothed_3K,baseline_3K,peak_minus_baseline_3K,FS_fit_3K,T_C_5K,DSC_smoothed_5K,baseline_5K,peak_minus_baseline_5K,FS_fit_5K
285,-0.279451,-0.27972,0.000268974,-0.27972,282.001,-0.208781,-0.208913,0.000132656,-0.208913,286.001,-0.191513,-0.191478,0,-0.191478
285.002,-0.279458,-0.27972,0.00026149,-0.27972,282.003,-0.208787,-0.208906,0.000118736,-0.208906,286.003,-0.191506,-0.191468,0,-0.191468
285.003,-0.279465,-0.279719,0.000254229,-0.279719,282.005,-0.208795,-0.208899,0.000104138,-0.208899,286.005,-0.191499,-0.191459,0,-0.191459
285.005,-0.279471,-0.279718,0.000247115,-0.279718,282.008,-0.208802,-0.208891,8.90466e-05,-0.208891,286.006,-0.191493,-0.191449,0,-0.191449
285.006,-0.279478,-0.279718,0.000239327,-0.279718,282.01,-0.208811,-0.208884,7.32689e-05,-0.208884,286.008,-0.191486,-0.191439,0,-0.191439
285.008,-0.279485,-0.279717,0.000232113,-0.279717,282.012,-0.20882,-0.208877,5.70207e-05,-0.208877,286.01,-0.19148,-0.191429,0,-0.191429
285.009,-0.279491,-0.279716,0.000225493,-0.279716,282.014,-0.208829,-0.208869,4.03978e-05,-0.208869,286.012,-0.191472,-0.191419,0,-0.191419
285.01,-0.279496,-0.279715,0.000219,-0.279715,282.016,-0.208839,-0.208862,2.3517e-05,-0.208862,286.013,-0.191465,-0.191409,0,-0.191409
285.012,-0.279502,-0.279715,0.000212402,-0.279715,282.018,-0.208849,-0.208855,6.2263e-06,-0.208855,286.015,-0.191457,-0.191399,0,-0.191399
285.013,-0.279508,-0.279714,0.000205581,-0.279714,282.02,-0.208859,-0.208848,0,-0.208848,286.017,-0.191448,-0.19139,0,-0.19139
285.015,-0.279516,-0.279713,0.000197677,-0.279713,282.022,-0.20887,-0.20884,0,-0.20884,286.019,-0.191439,-0.19138,0,-0.19138
285.016,-0.279523,-0.279713,0.000189671,-0.279713,282.024,-0.208881,-0.208833,0,-0.208833,286.02,-0.19143,-0.19137,0,-0.19137
285.018,-0.279531,-0.279712,0.000181087,-0.279712,282.026,-0.208891,-0.208826,0,-0.208826,286.022,-0.191421,-0.19136,0,-0.19136
285.019,-0.279539,-0.279711,0.000172578,-0.279711,282.028,-0.208901,-0.208818,0,-0.208818,286.024,-0.191412,-0.19135,0,-0.19135
285.02,-0.279546,-0.279711,0.000164424,-0.279711,282.031,-0.208911,-0.208811,0,-0.208811,286.026,-0.191403,-0.19134,0,-0.19134
285.022,-0.279554,-0.27971,0.000156141,-0.27971,282.033,-0.208921,-0.208804,0,-0.208804,286.027,-0.191395,-0.19133,0,-0.19133
285.023,-0.279562,-0.279709,0.000147333,-0.279709,282.035,-0.20893,-0.208796,0,-0.208796,286.029,-0.191387,-0.191321,0,-0.191321
285.025,-0.27957,-0.279708,0.000138989,-0.279708,282.037,-0.208939,-0.208789,0,-0.208789,286.031,-0.191379,-0.191311,0,-0.191311
285.026,-0.279577,-0.279708,0.00013112,-0.279708,282.039,-0.208948,-0.208782,0,-0.208782,286.033,-0.191372,-0.191301,0,-0.191301
285.027,-0.279584,-0.279707,0.000123356,-0.279707,282.041,-0.208956,-0.208774,0,-0.208774,286.035,-0.191366,-0.191291,0,-0.191291
285.029,-0.279591,-0.279706,0.000115623,-0.279706,282.043,-0.208964,-0.208767,0,-0.208767,286.036,-0.19136,-0.191281,0,-0.191281
285.03,-0.279598,-0.279706,0.000107813,-0.279706,282.045,-0.208972,-0.20876,0,-0.20876,286.038,-0.191355,-0.191271,0,-0.191271
285.032,-0.279605,-0.279705,0.000100296,-0.279705,282.047,-0.20898,-0.208753,0,-0.208753,286.04,-0.19135,-0.191261,0,-0.191261
285.033,-0.27961,-0.279704,9.38204e-05,-0.279704,282.049,-0.208987,-0.208745,0,-0.208745,286.042,-0.191346,-0.191252,0,-0.191252
285.035,-0.279616,-0.279704,8.78721e-05,-0.279704,282.052,-0.208994,-0.208738,0,-0.208738,286.043,-0.191342,-0.191242,0,-0.191242
285.036,-0.279621,-0.279703,8.18103e-05,-0.279703,282.054,-0.209001,-0.208731,0,-0.208731,286.045,-0.191339,-0.191232,0,-0.191232
285.037,-0.279626,-0.279702,7.6498e-05,-0.279702,282.056,-0.209008,-0.208723,0,-0.208723,286.047,-0.191335,-0.191222,0,-0.191222
285.039,-0.27963,-0.279702,7.17025e-05,-0.279702,282.058,-0.209014,-0.208716,0,-0.208716,286.049,-0.191332,-0.191212,0,-0.191212
285.04,-0.279634,-0.279701,6.69392e-05,-0.279701,282.06,-0.209021,-0.208709,0,-0.208709,286.05,-0.191328,-0.191202,0,-0.191202
285.042,-0.279637,-0.2797,6.27413e-05,-0.2797,282.062,-0.209027,-0.208701,0,-0.208701,286.052,-0.191325,-0.191193,0,-0.191193
285.043,-0.279641,-0.279699,5.8759e-05,-0.279699,282.064,-0.209032,-0.208694,0,-0.208694,286.054,-0.191321,-0.191183,0,-0.191183
285.045,-0.279644,-0.279699,5.47102e-05,-0.279699,282.066,-0.209038,-0.208687,0,-0.208687,286.056,-0.191317,-0.191173,0,-0.191173
285.046,-0.279647,-0.279698,5.11556e-05,-0.279698,282.068,-0.209043,-0.208679,0,-0.208679,286.057,-0.191314,-0.191163,0,-0.191163
285.047,-0.27965,-0.279697,4.75709e-05,-0.279697,282.07,-0.209048,-0.208672,0,-0.208672,286.059,-0.19131,-0.191153,0,-0.191153
285.049,-0.279652,-0.279697,4.42115e-05,-0.279697,282.072,-0.209054,-0.208665,0,-0.208665,286.061,-0.191307,-0.191143,0,-0.191143
285.05,-0.279655,-0.279696,4.10496e-05,-0.279696,282.075,-0.20906,-0.208657,0,-0.208657,286.063,-0.191305,-0.191133,0,-0.191133
285.052,-0.279658,-0.279695,3.73185e-05,-0.279695,282.077,-0.209065,-0.20865,0,-0.20865,286.064,-0.191302,-0.191124,0,-0.191124
285.053,-0.279661,-0.279695,3.36307e-05,-0.279695,282.079,-0.209071,-0.208643,0,-0.208643,286.066,-0.191299,-0.191114,0,-0.191114
285.054,-0.279664,-0.279694,3.02114e-05,-0.279694,282.081,-0.209077,-0.208636,0,-0.208636,286.068,-0.191296,-0.191104,0,-0.191104
285.056,-0.279666,-0.279693,2.70585e-05,-0.279693,282.083,-0.209084,-0.208628,0,-0.208628,286.07,-0.191293,-0.191094,0,-0.191094
285.057,-0.279668,-0.279692,2.42068e-05,-0.279692,282.085,-0.209091,-0.208621,0,-0.208621,286.072,-0.191289,-0.191084,0,-0.191084
285.059,-0.279671,-0.279692,2.10602e-05,-0.279692,282.087,-0.209099,-0.208614,0,-0.208614,286.073,-0.191286,-0.191074,0,-0.191074
285.06,-0.279674,-0.279691,1.7344e-05,-0.279691,282.089,-0.209106,-0.208606,0,-0.208606,286.075,-0.191282,-0.191065,0,-0.191065
285.062,-0.279677,-0.27969,1.30255e-05,-0.27969,282.091,-0.209113,-0.208599,0,-0.208599,286.077,-0.191278,-0.191055,0,-0.191055
285.063,-0.279681,-0.27969,8.58795e-06,-0.27969,282.093,-0.20912,-0.208592,0,-0.208592,286.079,-0.191274,-0.191045,0,-0.191045
285.064,-0.279685,-0.279689,4.12723e-06,-0.279689,282.096,-0.209126,-0.208584,0,-0.208584,286.08,-0.19127,-0.191035,0,-0.191035
285.066,-0.279689,-0.279688,0,-0.279688,282.098,-0.209132,-0.208577,0,-0.208577,286.082,-0.191266,-0.191025,0,-0.191025
285.067,-0.279694,-0.279688,0,-0.279688,282.1,-0.209138,-0.20857,0,-0.20857,286.084,-0.191262,-0.191015,0,-0.191015
285.069,-0.279699,-0.279687,0,-0.279687,282.102,-0.209144,-0.208562,0,-0.208562,286.086,-0.191258,-0.191005,0,-0.191005
285.07,-0.279705,-0.279686,0,-0.279686,282.104,-0.209149,-0.208555,0,-0.208555,286.087,-0.191253,-0.190996,0,-0.190996
285.072,-0.279709,-0.279685,0,-0.279685,282.106,-0.209154,-0.208548,0,-0.208548,286.089,-0.191249,-0.190986,0,-0.190986
285.073,-0.279715,-0.279685,0,-0.279685,282.108,-0.209159,-0.208541,0,-0.208541,286.091,-0.191245,-0.190976,0,-0.190976
285.074,-0.27972,-0.279684,0,-0.279684,282.11,-0.209163,-0.208533,0,-0.208533,286.093,-0.191241,-0.190966,0,-0.190966
285.076,-0.279725,-0.279683,0,-0.279683,282.112,-0.209167,-0.208526,0,-0.208526,286.094,-0.191237,-0.190956,0,-0.190956
285.077,-0.27973,-0.279683,0,-0.279683,282.114,-0.209171,-0.208519,0,-0.208519,286.096,-0.191234,-0.190946,0,-0.190946
285.079,-0.279736,-0.279682,0,-0.279682,282.116,-0.209175,-0.208511,0,-0.208511,286.098,-0.191231,-0.190936,0,-0.190936
285.08,-0.279742,-0.279681,0,-0.279681,282.119,-0.209178,-0.208504,0,-0.208504,286.1,-0.191229,-0.190927,0,-0.190927
285.081,-0.279748,-0.279681,0,-0.279681,282.121,-0.209182,-0.208497,0,-0.208497,286.101,-0.191227,-0.190917,0,-0.190917
285.083,-0.279752,-0.27968,0,-0.27968,282.123,-0.209185,-0.208489,0,-0.208489,286.103,-0.191226,-0.190907,0,-0.190907
285.084,-0.279755,-0.279679,0,-0.279679,282.125,-0.209187,-0.208482,0,-0.208482,286.105,-0.191226,-0.190897,0,-0.190897
285.086,-0.279758,-0.279678,0,-0.279678,282.127,-0.209189,-0.208475,0,-0.208475,286.107,-0.191226,-0.190887,0,-0.190887
285.087,-0.279761,-0.279678,0,-0.279678,282.129,-0.209191,-0.208467,0,-0.208467,286.108,-0.191226,-0.190877,0,-0.190877
285.089,-0.279763,-0.279677,0,-0.279677,282.131,-0.209192,-0.20846,0,-0.20846,286.11,-0.191227,-0.190868,0,-0.190868
285.09,-0.279765,-0.279676,0,-0.279676,282.133,-0.209193,-0.208453,0,-0.208453,286.112,-0.191228,-0.190858,0,-0.190858
285.091,-0.279766,-0.279676,0,-0.279676,282.135,-0.209194,-0.208446,0,-0.208446,286.114,-0.191229,-0.190848,0,-0.190848
285.093,-0.279768,-0.279675,0,-0.279675,282.137,-0.209194,-0.208438,0,-0.208438,286.116,-0.19123,-0.190838,0,-0.190838
285.094,-0.279769,-0.279674,0,-0.279674,282.14,-0.209195,-0.208431,0,-0.208431,286.117,-0.191231,-0.190828,0,-0.190828
285.096,-0.279771,-0.279674,0,-0.279674,282.142,-0.209195,-0.208424,0,-0.208424,286.119,-0.191231,-0.190818,0,-0.190818
285.097,-0.279772,-0.279673,0,-0.279673,282.144,-0.209194,-0.208416,0,-0.208416,286.121,-0.19123,-0.190809,0,-0.190809
285.099,-0.279773,-0.279672,0,-0.279672,282.146,-0.209194,-0.208409,0,-0.208409,286.123,-0.191229,-0.190799,0,-0.190799
285.1,-0.279775,-0.279672,0,-0.279672,282.148,-0.209195,-0.208402,0,-0.208402,286.124,-0.191228,-0.190789,0,-0.190789
285.101,-0.279777,-0.279671,0,-0.279671,282.15,-0.209195,-0.208394,0,-0.208394,286.126,-0.191227,-0.190779,0,-0.190779
285.103,-0.279779,-0.27967,0,-0.27967,282.152,-0.209196,-0.208387,0,-0.208387,286.128,-0.191225,-0.190769,0,-0.190769
285.104,-0.279781,-0.279669,0,-0.279669,282.154,-0.209197,-0.20838,0,-0.20838,286.13,-0.191224,-0.190759,0,-0.190759
285.106,-0.279783,-0.279669,0,-0.279669,282.156,-0.209198,-0.208372,0,-0.208372,286.131,-0.191222,-0.190749,0,-0.190749
285.107,-0.279786,-0.279668,0,-0.279668,282.158,-0.209199,-0.208365,0,-0.208365,286.133,-0.19122,-0.19074,0,-0.19074
285.108,-0.279789,-0.279667,0,-0.279667,282.16,-0.209201,-0.208358,0,-0.208358,286.135,-0.191219,-0.19073,0,-0.19073
285.11,-0.279791,-0.279667,0,-0.279667,282.163,-0.209203,-0.208351,0,-0.208351,286.137,-0.191217,-0.19072,0,-0.19072
285.111,-0.279794,-0.279666,0,-0.279666,282.165,-0.209204,-0.208343,0,-0.208343,286.138,-0.191215,-0.19071,0,-0.19071
285.113,-0.279797,-0.279665,0,-0.279665,282.167,-0.209206,-0.208336,0,-0.208336,286.14,-0.191213,-0.1907,0,-0.1907
285.114,-0.2798,-0.279665,0,-0.279665,282.169,-0.209208,-0.208329,0,-0.208329,286.142,-0.19121,-0.19069,0,-0.19069
285.116,-0.279803,-0.279664,0,-0.279664,282.171,-0.209209,-0.208321,0,-0.208321,286.144,-0.191208,-0.19068,0,-0.19068
285.117,-0.279806,-0.279663,0,-0.279663,282.173,-0.20921,-0.208314,0,-0.208314,286.145,-0.191204,-0.190671,0,-0.190671
285.118,-0.279809,-0.279662,0,-0.279662,282.175,-0.209211,-0.208307,0,-0.208307,286.147,-0.191201,-0.190661,0,-0.190661
285.12,-0.279811,-0.279662,0,-0.279662,282.177,-0.209212,-0.208299,0,-0.208299,286.149,-0.191198,-0.190651,0,-0.190651
285.121,-0.279813,-0.279661,0,-0.279661,282.179,-0.209212,-0.208292,0,-0.208292,286.151,-0.191194,-0.190641,0,-0.190641
285.123,-0.279816,-0.27966,0,-0.27966,282.181,-0.209211,-0.208285,0,-0.208285,286.152,-0.191191,-0.190631,0,-0.190631
285.124,-0.279818,-0.27966,0,-0.27966,282.184,-0.20921,-0.208278,0,-0.208278,286.154,-0.191188,-0.190621,0,-0.190621
285.126,-0.279821,-0.279659,0,-0.279659,282.186,-0.209209,-0.20827,0,-0.20827,286.156,-0.191185,-0.190611,0,-0.190611
285.127,-0.279823,-0.279658,0,-0.279658,282.188,-0.209207,-0.208263,0,-0.208263,286.158,-0.191181,-0.190602,0,-0.190602
285.128,-0.279826,-0.279658,0,-0.279658,282.19,-0.209205,-0.208256,0,-0.208256,286.16,-0.191178,-0.190592,0,-0.190592
285.13,-0.279829,-0.279657,0,-0.279657,282.192,-0.209201,-0.208248,0,-0.208248,286.161,-0.191175,-0.190582,0,-0.190582
285.131,-0.279832,-0.279656,0,-0.279656,282.194,-0.209198,-0.208241,0,-0.208241,286.163,-0.191172,-0.190572,0,-0.190572
285.133,-0.279835,-0.279655,0,-0.279655,282.196,-0.209194,-0.208234,0,-0.208234,286.165,-0.191169,-0.190562,0,-0.190562
285.134,-0.279837,-0.279655,0,-0.279655,282.198,-0.209191,-0.208226,0,-0.208226,286.167,-0.191166,-0.190552,0,-0.190552
285.135,-0.279839,-0.279654,0,-0.279654,282.2,-0.209188,-0.208219,0,-0.208219,286.168,-0.191163,-0.190543,0,-0.190543
285.137,-0.279842,-0.279653,0,-0.279653,282.202,-0.209184,-0.208212,0,-0.208212,286.17,-0.191159,-0.190533,0,-0.190533
285.138,-0.279846,-0.279653,0,-0.279653,282.204,-0.209181,-0.208204,0,-0.208204,286.172,-0.191156,-0.190523,0,-0.190523
285.14,-0.27985,-0.279652,0,-0.279652,282.207,-0.209177,-0.208197,0,-0.208197,286.174,-0.191152,-0.190513,0,-0.190513
285.141,-0.279854,-0.279651,0,-0.279651,282.209,-0.209174,-0.20819,0,-0.20819,286.175,-0.191147,-0.190503,0,-0.190503
285.143,-0.279858,-0.279651,0,-0.279651,282.211,-0.209171,-0.208183,0,-0.208183,286.177,-0.191143,-0.190493,0,-0.190493
285.144,-0.279862,-0.27965,0,-0.27965,282.213,-0.209169,-0.208175,0,-0.208175,286.179,-0.191138,-0.190483,0,-0.190483
285.145,-0.279866,-0.279649,0,-0.279649,282.215,-0.209167,-0.208168,0,-0.208168,286.181,-0.191134,-0.190474,0,-0.190474
285.147,-0.27987,-0.279649,0,-0.279649,282.217,-0.209167,-0.208161,0,-0.208161,286.182,-0.19113,-0.190464,0,-0.190464
285.148,-0.279876,-0.279648,0,-0.279648,282.219,-0.209166,-0.208153,0,-0.208153,286.184,-0.191127,-0.190454,0,-0.190454
285.15,-0.279882,-0.279647,0,-0.279647,282.221,-0.209166,-0.208146,0,-0.208146,286.186,-0.191124,-0.190444,0,-0.190444
285.151,-0.279889,-0.279646,0,-0.279646,282.223,-0.209166,-0.208139,0,-0.208139,286.188,-0.191121,-0.190434,0,-0.190434
285.153,-0.279897,-0.279646,0,-0.279646,282.225,-0.209167,-0.208131,0,-0.208131,286.189,-0.191119,-0.190424,0,-0.190424
285.154,-0.279905,-0.279645,0,-0.279645,282.228,-0.209168,-0.208124,0,-0.208124,286.191,-0.191117,-0.190414,0,-0.190414
285.155,-0.279913,-0.279644,0,-0.279644,282.23,-0.20917,-0.208117,0,-0.208117,286.193,-0.191115,-0.190405,0,-0.190405
285.157,-0.279921,-0.279644,0,-0.279644,282.232,-0.209173,-0.208109,0,-0.208109,286.195,-0.191112,-0.190395,0,-0.190395
285.158,-0.27993,-0.279643,0,-0.279643,282.234,-0.209176,-0.208102,0,-0.208102,286.197,-0.191109,-0.190385,0,-0.190385
285.16,-0.279938,-0.279642,0,-0.279642,282.236,-0.209178,-0.208095,0,-0.208095,286.198,-0.191106,-0.190375,0,-0.190375
285.161,-0.279945,-0.279642,0,-0.279642,282.238,-0.209182,-0.208088,0,-0.208088,286.2,-0.191103,-0.190365,0,-0.190365
285.162,-0.279952,-0.279641,0,-0.279641,282.24,-0.209186,-0.20808,0,-0.20808,286.202,-0.191099,-0.190355,0,-0.190355
285.164,-0.279957,-0.27964,0,-0.27964,282.242,-0.20919,-0.208073,0,-0.208073,286.204,-0.191095,-0.190346,0,-0.190346
285.165,-0.279962,-0.279639,0,-0.279639,282.244,-0.209195,-0.208066,0,-0.208066,286.205,-0.191091,-0.190336,0,-0.190336
285.167,-0.279966,-0.279639,0,-0.279639,282.246,-0.2092,-0.208058,0,-0.208058,286.207,-0.191086,-0.190326,0,-0.190326
285.168,-0.279969,-0.279638,0,-0.279638,282.248,-0.209205,-0.208051,0,-0.208051,286.209,-0.191081,-0.190316,0,-0.190316
285.17,-0.279972,-0.279637,0,-0.279637,282.251,-0.20921,-0.208044,0,-0.208044,286.211,-0.191074,-0.190306,0,-0.190306
285.171,-0.279974,-0.279637,0,-0.279637,282.253,-0.209216,-0.208036,0,-0.208036,286.212,-0.191067,-0.190296,0,-0.190296
285.172,-0.279975,-0.279636,0,-0.279636,282.255,-0.209223,-0.208029,0,-0.208029,286.214,-0.191059,-0.190286,0,-0.190286
285.174,-0.279975,-0.279635,0,-0.279635,282.257,-0.209229,-0.208022,0,-0.208022,286.216,-0.19105,-0.190277,0,-0.190277
285.175,-0.279976,-0.279635,0,-0.279635,282.259,-0.209236,-0.208014,0,-0.208014,286.218,-0.19104,-0.190267,0,-0.190267
285.177,-0.279976,-0.279634,0,-0.279634,282.261,-0.209243,-0.208007,0,-0.208007,286.219,-0.191031,-0.190257,0,-0.190257
285.178,-0.279975,-0.279633,0,-0.279633,282.263,-0.20925,-0.208,0,-0.208,286.221,-0.191022,-0.190247,0,-0.190247
285.18,-0.279975,-0.279632,0,-0.279632,282.265,-0.209258,-0.207993,0,-0.207993,286.223,-0.191013,-0.190237,0,-0.190237
285.181,-0.279975,-0.279632,0,-0.279632,282.267,-0.209266,-0.207985,0,-0.207985,286.225,-0.191005,-0.190227,0,-0.190227
285.182,-0.279974,-0.279631,0,-0.279631,282.269,-0.209273,-0.207978,0,-0.207978,286.226,-0.190997,-0.190218,0,-0.190218
285.184,-0.279972,-0.27963,0,-0.27963,282.271,-0.209281,-0.207971,0,-0.207971,286.228,-0.190991,-0.190208,0,-0.190208
285.185,-0.27997,-0.27963,0,-0.27963,282.274,-0.209289,-0.207963,0,-0.207963,286.23,-0.190985,-0.190198,0,-0.190198
285.187,-0.279965,-0.279629,0,-0.279629,282.276,-0.209296,-0.207956,0,-0.207956,286.232,-0.19098,-0.190188,0,-0.190188
285.188,-0.27996,-0.279628,0,-0.279628,282.278,-0.209304,-0.207949,0,-0.207949,286.233,-0.190976,-0.190178,0,-0.190178
285.189,-0.279954,-0.279628,0,-0.279628,282.28,-0.209311,-0.207941,0,-0.207941,286.235,-0.190971,-0.190168,0,-0.190168
285.191,-0.279947,-0.279627,0,-0.279627,282.282,-0.209319,-0.207934,0,-0.207934,286.237,-0.190967,-0.190158,0,-0.190158
285.192,-0.279939,-0.279626,0,-0.279626,282.284,-0.209327,-0.207927,0,-0.207927,286.239,-0.190964,-0.190149,0,-0.190149
285.194,-0.27993,-0.279626,0,-0.279626,282.286,-0.209334,-0.20792,0,-0.20792,286.241,-0.19096,-0.190139,0,-0.190139
285.195,-0.279921,-0.279625,0,-0.279625,282.288,-0.209342,-0.207912,0,-0.207912,286.242,-0.190956,-0.190129,0,-0.190129
285.197,-0.279912,-0.279624,0,-0.279624,282.29,-0.20935,-0.207905,0,-0.207905,286.244,-0.190952,-0.190119,0,-0.190119
285.198,-0.279903,-0.279623,0,-0.279623,282.292,-0.209358,-0.207898,0,-0.207898,286.246,-0.190948,-0.190109,0,-0.190109
285.199,-0.279893,-0.279623,0,-0.279623,282.295,-0.209366,-0.20789,0,-0.20789,286.248,-0.190944,-0.190099,0,-0.190099
285.201,-0.279882,-0.279622,0,-0.279622,282.297,-0.209374,-0.207883,0,-0.207883,286.249,-0.190939,-0.190089,0,-0.190089
285.202,-0.279871,-0.279621,0,-0.279621,282.299,-0.209382,-0.207876,0,-0.207876,286.251,-0.190934,-0.19008,0,-0.19008
285.204,-0.279859,-0.279621,0,-0.279621,282.301,-0.209391,-0.207868,0,-0.207868,286.253,-0.190929,-0.19007,0,-0.19007
285.205,-0.279847,-0.27962,0,-0.27962,282.303,-0.2094,-0.207861,0,-0.207861,286.255,-0.190923,-0.19006,0,-0.19006
285.206,-0.279836,-0.279619,0,-0.279619,282.305,-0.209409,-0.207854,0,-0.207854,286.256,-0.190917,-0.19005,0,-0.19005
285.208,-0.279824,-0.279619,0,-0.279619,282.307,-0.209419,-0.207847,0,-0.207847,286.258,-0.190911,-0.19004,0,-0.19004
285.209,-0.279812,-0.279618,0,-0.279618,282.309,-0.209429,-0.207839,0,-0.207839,286.26,-0.190905,-0.19003,0,-0.19003
285.211,-0.279801,-0.279617,0,-0.279617,282.311,-0.209439,-0.207832,0,-0.207832,286.262,-0.190899,-0.19002,0,-0.19002
285.212,-0.279788,-0.279616,0,-0.279616,282.313,-0.209449,-0.207825,0,-0.207825,286.263,-0.190893,-0.190011,0,-0.190011
285.214,-0.279776,-0.279616,0,-0.279616,282.315,-0.20946,-0.207817,0,-0.207817,286.265,-0.190886,-0.190001,0,-0.190001
285.215,-0.279763,-0.279615,0,-0.279615,282.318,-0.209471,-0.20781,0,-0.20781,286.267,-0.19088,-0.189991,0,-0.189991
285.216,-0.27975,-0.279614,0,-0.279614,282.32,-0.209482,-0.207803,0,-0.207803,286.269,-0.190874,-0.189981,0,-0.189981
285.218,-0.279738,-0.279614,0,-0.279614,282.322,-0.209493,-0.207795,0,-0.207795,286.27,-0.190867,-0.189971,0,-0.189971
285.219,-0.279726,-0.279613,0,-0.279613,282.324,-0.209505,-0.207788,0,-0.207788,286.272,-0.19086,-0.189961,0,-0.189961
285.221,-0.279714,-0.279612,0,-0.279612,282.326,-0.209516,-0.207781,0,-0.207781,286.274,-0.190852,-0.189951,0,-0.189951
285.222,-0.279703,-0.279612,0,-0.279612,282.328,-0.209527,-0.207774,0,-0.207774,286.276,-0.190844,-0.189942,0,-0.189942
285.224,-0.279692,-0.279611,0,-0.279611,282.33,-0.209538,-0.207766,0,-0.207766,286.278,-0.190836,-0.189932,0,-0.189932
285.225,-0.279682,-0.27961,0,-0.27961,282.332,-0.209549,-0.207759,0,-0.207759,286.279,-0.190828,-0.189922,0,-0.189922
285.226,-0.279672,-0.279609,0,-0.279609,282.334,-0.20956,-0.207752,0,-0.207752,286.281,-0.19082,-0.189912,0,-0.189912
285.228,-0.279663,-0.279609,0,-0.279609,282.336,-0.209571,-0.207744,0,-0.207744,286.283,-0.190812,-0.189902,0,-0.189902
